6
9
18
27
35
42
43
53
58
90
96
106
117
128
152
158
166
188
200
207
224
231
241
251
282
317
319
320
333
339
344
387
400
406
409
420
423
434
441
444
452
470
472
475
488
508
514
520
525
534
588
590
601
606
626
634
651
653
659
672
685
711
715
722
727
745
750
757
771
821
822
823
828
832
841
845
853
878
887
888
893
916
931
936
949
958
960
964
977
986
993
998
1020
1040
1049
1052
1070
1084
1104
1113
1121
1122
1124
1127
1129
1133
1137
1139
1143
1146
1160
1163
1166
1169
1188
1193
1200
1213
1225
1229
1232
1235
1245
1269
1290
1291
1307
1312
1315
1317
1320
1330
1341
1343
1375
1389
1395
1402
1403
1419
1424
1442
1480
1489
1494
1496
1512
1519
1524
1527
1528
1530
1535
1545
1584
1588
1604
1612
1625
1633
1638
1644
1646
1647
1654
1669
1674
1679
1680
1684
1697
1713
1729
1743
1746
1753
1771
1776
1790
1796
1824
1827
1832
1858
1869
1874
1876
1880
1889
1891
1894
1899
1924
1940
1958
1964
1976
1982
1983
1988
1989
2037
2041
2045
2060
2068
2073
2085
2088
2091
2103
2143
2144
2146
2167
2170
2184
2200
2223
2236
2266
2267
2286
2287
2296
2330
2340
2361
2369
2414
2417
2426
2434
2441
2442
2444
2471
2485
2492
2496
2503
2504
2506
2522
2529
2532
2536
2546
2547
2564
2573
2579
2584
2591
2594
2607
2608
2615
2621
2634
2646
2647
2662
2664
2677
2683
2697
2704
2705
2718
2724
2749
2780
2803
2847
2851
2870
2881
2885
2900
2925
2927
2938
2939
2973
2977
2979
3006
3020
3033
3044
3073
3090
3111
3114
3116
3119
3122
3130
3138
3139
3143
3150
3155
3164
3180
3185
3228
3241
3249
3257
3258
3262
3266
3269
3295
3335
3346
3388
3404
3432
3441
3443
3450
3456
3457
3467
3470
3475
3483
3492
3501
3502
3505
3510
3552
3576
3583
3611
3613
3638
3653
3660
3678
3714
3757
3783
3793
3796
3799
3825
3834
3837
3838
3860
3868
3883
3899
3906
3951
3957
3963
3988
3991
4023
4037
4044
4046
4054
4057
4077
4097
4122
4126
4132
4138
4140
4143
4145
4154
4164
4168
4186
4199
4201
4213
4216
4220
4240
4242
4244
4251
4253
4268
4269
4271
4295
4309
4310
4324
4355
4356
4358
4365
4368
4381
4384
4387
4399
4434
4438
4447
4451
4459
4466
4472
4496
4508
4514
4525
4538
4540
4544
4547
4556
4560
4571
4590
4604
4606
4628
4629
4633
4635
4645
4657
4707
4722
4723
4731
4735
4740
4742
4756
4761
4778
4784
4786
4791
4802
4806
4815
4819
4820
4821
4825
4838
4841
4857
4862
4864
4868
4880
4901
4908
4915
4929
4939
4948
4965
4970
4992
5002
5006
5016
5029
5057
5058
5075
5089
5111
5113
5150
5168
5174
5180
5184
5207
5211
5222
5225
5261
5266
5285
5288
5316
5322
5327
5343
5348
5365
5372
5375
5385
5395
5414
5431
5450
5456
5463
5470
5473
5492
5515
5523
5534
5536
5561
5566
5569
5577
5580
5595
5613
5620
5629
5635
5639
5641
5643
5653
5669
5674
5688
5705
5712
5715
5721
5725
5736
5745
5750
5772
5776
5779
5780
5781
5782
5789
5794
5800
5802
5817
5822
5830
5835
5844
5866
5874
5879
5880
5890
5892
5919
5926
5941
5946
5948
5967
5971
5976
5982
5990
5998
6000
6008
6031
6034
6036
6040
6053
6054
6065
6068
6107
6114
6116
6127
6137
6143
6148
6153
6180
6182
6185
6189
6222
6224
6239
6257
6281
6289
6320
6331
6342
6354
6355
6364
6369
6379
6395
6396
6402
6405
6407
6429
6451
6475
6480
6483
6489
6508
6513
6539
6554
6575
6577
6579
6587
6595
6611
6615
6637
6652
6658
6672
6677
6686
6691
6703
6705
6716
6743
6759
6788
6794
6795
6798
6806
6819
6829
6837
6839
6867
6869
6892
6903
6923
6924
6980
7032
7036
7042
7051
7060
7086
7097
7105
7117
7145
7148
7157
7164
7175
7200
7205
7211
7219
7221
7224
7238
7255
7289
7297
7331
7341
7360
7363
7366
7385
7389
7393
7398
7405
7408
7418
7420
7433
7445
7447
7468
7470
7471
7475
7477
7487
7490
7495
7499
7513
7536
7539
7565
7581
7582
7586
7588
7591
7594
7616
7623
7632
7655
7677
7682
7696
7720
7728
7742
7791
7799
7812
7815
7858
7860
7863
7877
7896
7901
7909
7969
7977
7996
7997
8003
8007
8023
8025
8027
8035
8043
8093
8098
8109
8136
8143
8161
8180
8182
8189
8195
8197
8203
8205
8208
8214
8227
8230
8233
8239
8242
8247
8255
8262
8266
8269
8270
8272
8281
8284
8285
8299
8334
8340
8360
8370
8373
8400
8403
8415
8417
8429
8438
8440
8441
8450
8454
8461
8471
8474
8476
8488
8509
8548
8553
8567
8576
8582
8587
8594
8597
8599
8607
8609
8610
8612
8622
8648
8650
8656
8666
8667
8677
8697
8706
8721
8745
8748
8749
8751
8755
8758
8763
8780
8789
8794
8813
8822
8828
8848
8852
8891
8899
8900
8902
8908
8927
8928
8938
8944
8954
8965
8974
8983
8988
9009
9016
9020
9038
9044
9050
9058
9070
9073
9081
9082
9089
9100
9125
9135
9153
9169
9171
9176
9181
9185
9196
9198
9201
9219
9224
9241
9251
9254
9258
9279
9286
9293
9299
9303
9307
9308
9329
9331
9375
9377
9417
9435
9439
9449
9454
9455
9460
9466
9467
9479
9489
9495
9517
9519
9522
9528
9539
9545
9548
9553
9556
9562
9568
9571
9597
9604
9608
9622
9635
9641
9643
9648
9653
9662
9669
9681
9694
9698
9699
9700
9711
9741
9747
9756
9771
9783
9793
9799
9811
9820
9826
9853
9856
9860
9861
9865
9867
9874
9924
9948
9965
9966
9969
9980
9991
10011
10014
10022
10031
10032
10048
10050
10051
10059
10080
10087
10090
10094
10103
10117
10133
10153
10163
10169
10170
10180
10182
10193
10215
10224
10225
10235
10250
10257
10258
10292
10298
10302
10324
10333
10336
10340
10348
10351
10352
10370
10373
10377
10386
10388
10395
10405
10414
10461
10464
10468
10475
10482
10508
10526
10534
10559
10560
10582
10587
10615
10653
10665
10674
10682
10686
10694
10697
10699
10706
10718
10726
10729
10731
10732
10745
10752
10766
10772
10774
10799
10800
10804
10819
10825
10832
10838
10841
10846
10852
10875
10876
10881
10882
10888
10893
10895
10898
10899
10905
10908
10918
10931
10933
10956
10957
10971
10981
11011
11014
11016
11018
11025
11045
11058
11059
11065
11073
11091
11092
11102
11108
11112
11128
11136
11139
11152
11159
11169
11175
11184
11195
11209
11211
11212
11229
11237
11241
11253
11261
11266
11267
11283
11285
11288
11302
11307
11319
11320
11349
11361
11364
11367
11369
11376
11388
11398
11400
11439
11459
11460
11494
11535
11538
11552
11574
11619
11621
11622
11635
11643
11647
11656
11675
11676
11678
11686
11690
11698
11703
11716
11720
11723
11741
11748
11751
11760
11761
11765
11766
11782
11788
11793
11808
11834
11838
11839
11843
11844
11858
11862
11868
11878
11882
11888
11890
11933
11936
11937
11960
11964
11969
11970
11971
11973
11979
12003
12009
12015
12025
12028
12034
12035
12052
12067
12091
12103
12111
12113
12116
12117
12119
12136
12139
12145
12151
12153
12168
12174
12180
12191
12201
12220
12227
12242
12248
12252
12261
12267
12276
12294
12309
12319
12320
12329
12333
12340
12351
12362
12370
12393
12409
12424
12426
12428
12441
12447
12464
12465
12472
12477
12499
12518
12525
12535
12538
12543
12551
12559
12565
12591
12604
12606
12608
12612
12634
12648
12666
12668
12670
12681
12682
12684
12710
12716
12729
12731
12735
12749
12761
12763
12766
12770
12775
12820
12829
12832
12870
12872
12876
12896
12902
12908
12925
12927
12957
12970
12989
12993
12995
13015
13017
13023
13034
13037
13039
13042
13057
13070
13079
13080
13082
13086
13087
13092
13110
13141
13142
13150
13151
13158
13159
13165
13204
13211
13242
13244
13255
13276
13287
13312
13315
13324
13325
13347
13363
13365
13368
13370
13390
13394
13404
13413
13420
13424
13439
13452
13464
13487
13506
13537
13545
13566
13582
13584
13604
13606
13610
13617
13634
13637
13638
13647
13678
13679
13687
13714
13733
13747
13763
13764
13779
13786
13793
13801
13804
13805
13833
13844
13847
13856
13857
13860
13866
13875
13884
13895
13905
13910
13921
13922
13931
13941
13968
13985
13991
13998
14005
14014
14018
14045
14048
14080
14089
14096
14102
14103
14108
14111
14113
14122
14130
14145
14147
14161
14169
14179
14205
14229
14235
14239
14254
14261
14265
14272
14273
14276
14277
14289
14291
14297
14300
14305
14310
14315
14322
14348
14353
14363
14366
14379
14384
14391
14409
14410
14411
14414
14416
14436
14444
14445
14447
14450
14463
14484
14485
14500
14516
14525
14531
14552
14554
14559
14562
14563
14570
14575
14577
14588
14597
14616
14620
14630
14637
14638
14670
14676
14732
14739
14750
14752
14756
14770
14774
14785
14786
14801
14808
14816
14819
14841
14849
14860
14863
14874
14892
14902
14920
14963
14964
14995
15022
15024
15026
15046
15047
15050
15055
15059
15066
15072
15079
15104
15106
15115
15121
15131
15133
15137
15143
15159
15165
15166
15175
15177
15178
15183
15201
15205
15206
15213
15214
15217
15225
15247
15275
15281
15305
15315
15320
15324
15343
15351
15354
15359
15365
15382
15386
15410
15411
15412
15430
15431
15462
15467
15473
15489
15500
15508
15546
15569
15573
15577
15578
15596
15604
15610
15618
15619
15620
15624
15625
15637
15640
15641
15643
15658
15662
15663
15692
15711
15715
15716
15723
15731
15733
15743
15761
15762
15770
15792
15795
15817
15822
15823
15831
15832
15884
15900
15907
15928
15938
15948
15950
15951
15955
15969
15975
16029
16081
16086
16088
16099
16113
16117
16124
16131
16152
16158
16172
16175
16185
16199
16206
16213
16214
16246
16251
16256
16270
16274
16275
16279
16286
16319
16323
16348
16355
16375
16381
16402
16404
16407
16419
16444
16453
16465
16468
16469
16473
16479
16498
16506
16510
16522
16526
16541
16563
16568
16585
16590
16622
16627
16636
16649
16653
16676
16677
16683
16688
16696
16698
16702
16712
16721
16760
16764
16767
16787
16793
16794
16806
16824
16833
16834
16836
16850
16856
16859
16862
16869
16881
16890
16891
16892
16910
16931
16936
16947
16950
16958
16960
16963
16973
16976
16978
16995
17009
17017
17022
17038
17045
17046
17048
17062
17092
17093
17098
17115
17117
17135
17142
17153
17157
17176
17179
17189
17191
17206
17211
17213
17218
17237
17243
17264
17273
17275
17277
17284
17285
17288
17294
17302
17311
17319
17343
17346
17351
17358
17360
17362
17367
17375
17376
17377
17387
17398
17405
17415
17416
17426
17430
17431
17438
17447
17453
17457
17467
17479
17483
17484
17498
17500
17501
17538
17563
17597
17611
17627
17637
17644
17656
17669
17680
17690
17698
17699
17700
17704
17707
17710
17714
17716
17717
17736
17739
17740
17742
17751
17762
17780
17787
17790
17803
17816
17825
17827
17836
17844
17859
17864
17871
17891
17895
17898
17908
17917
17919
17922
17923
17927
17928
17929
17934
17938
17946
17981
17997
17999
18001
18014
18023
18034
18038
18046
18065
18073
18084
18085
18087
18093
18106
18136
18146
18151
18168
18173
18185
18209
18218
18226
18236
18254
18256
18257
18270
18280
18285
18295
18306
18317
18321
18343
18347
18365
18368
18381
18388
18403
18404
18415
18432
18450
18456
18461
18472
18476
18503
18504
18508
18512
18518
18520
18533
18534
18545
18548
18553
18563
18578
18603
18625
18637
18644
18645
18661
18675
18678
18690
18709
18720
18728
18743
18748
18768
18774
18778
18784
18786
18790
18804
18807
18811
18825
18829
18856
18867
18872
18876
18879
18894
18904
18911
18924
18933
18938
18939
18941
18947
18955
18982
18997
19000
19019
19028
19053
19065
19083
19093
19098
19118
19128
19129
19159
19169
19178
19185
19227
19246
19277
19290
19292
19295
19299
19312
19332
19339
19342
19408
19411
19414
19419
19430
19436
19483
19491
19514
19545
19566
19574
19576
19581
19589
19591
19592
19597
19611
19617
19632
19639
19640
19649
19656
19669
19676
19690
19736
19746
19754
19761
19820
19847
19849
19863
19877
19893
19902
19908
19912
19913
19926
19930
19935
19937
19957
19959
19961
19980
19987
19989
19990
20018
20023
20034
20043
20049
20055
20056
20058
20082
20095
20100
20109
20110
20120
20135
20155
20162
20163
20172
20177
20183
20230
20233
20238
20247
20248
20253
20271
20277
20281
20289
20295
20297
20304
20330
20336
20356
20372
20383
20384
20387
20390
20406
20408
20427
20431
20443
20467
20475
20484
20488
20500
20501
20505
20506
20509
20514
20537
20542
20543
20544
20560
20571
20578
20581
20603
20604
20607
20609
20610
20616
20618
20625
20634
20670
20681
20707
20715
20724
20738
20746
20750
20762
20793
20798
20799
20803
20814
20816
20819
20825
20826
20843
20848
20851
20856
20873
20882
20892
20897
20906
20925
20929
20934
20938
20944
20976
20977
20978
20981
20983
20984
20998
21016
21022
21033
21044
21055
21057
21064
21065
21070
21073
21076
21101
21109
21114
21117
21118
21123
21142
21149
21152
21165
21176
21179
21192
21208
21251
21270
21286
21298
21300
21304
21306
21318
21321
21327
21338
21353
21359
21364
21369
21370
21387
21396
21406
21407
21421
21450
21455
21463
21464
21480
21482
21530
21532
21544
21564
21566
21594
21603
21617
21627
21638
21641
21656
21660
21661
21666
21667
21668
21683
21691
21694
21703
21724
21736
21740
21780
21817
21840
21841
21848
21863
21873
21877
21886
21896
21899
21906
21909
21942
21967
21980
21981
21990
21991
21998
22000
22003
22004
22006
22020
22031
22042
22045
22056
22057
22079
22090
22102
22104
22106
22122
22138
22144
22147
22159
22161
22184
22185
22186
22193
22194
22203
22206
22226
22247
22269
22294
22298
22330
22333
22341
22374
22376
22378
22379
22382
22386
22395
22436
22437
22440
22441
22443
22474
22478
22497
22503
22504
22512
22515
22520
22523
22534
22543
22546
22562
22580
22585
22592
22604
22606
22639
22651
22652
22654
22664
22668
22678
22682
22691
22711
22727
22732
22734
22735
22746
22748
22753
22755
22762
22786
22789
22811
22812
22825
22826
22829
22842
22847
22854
22870
22873
22878
22890
22902
22903
22916
22940
22941
22946
22948
22954
22963
22971
23000
23005
23023
23028
23033
23036
23044
23085
23089
23131
23134
23181
23183
23221
23230
23232
23237
23252
23267
23276
23281
23301
23307
23308
23312
23345
23348
23354
23360
23362
23367
23371
23399
23400
23408
23414
23417
23429
23430
23457
23470
23471
23479
23483
23484
23487
23491
23493
23497
23501
23506
23510
23517
23564
23581
23587
23594
23611
23623
23625
23634
23645
23647
23674
23693
23699
23703
23709
23713
23715
23717
23730
23747
23751
23762
23765
23777
23780
23814
23824
23825
23826
23828
23837
23838
23867
23871
23875
23876
23877
23887
23889
23891
23892
23912
23923
23938
23954
23964
23965
23968
23971
23976
23984
24002
24009
24019
24032
24035
24038
24039
24062
24072
24082
24084
24093
24094
24100
24103
24117
24121
24125
24126
24148
24164
24167
24169
24191
24201
24226
24237
24241
24253
24261
24286
24304
24319
24340
24344
24346
24351
24357
24368
24380
24382
24387
24407
24410
24416
24420
24442
24453
24454
24469
24471
24479
24496
24500
24520
24532
24533
24540
24566
24586
24591
24610
24616
24633
24635
24636
24638
24640
24653
24655
24656
24662
24676
24681
24697
24710
24719
24722
24727
24762
24768
24779
24784
24794
24811
24813
24831
24832
24849
24866
24873
24887
24892
24904
24908
24954
24958
24966
24969
24982
24990
25005
25006
25009
25013
25018
25029
25050
25058
25061
25072
25080
25084
25093
25097
25102
25112
25121
25130
25151
25153
25164
25171
25187
25192
25201
25221
25236
25240
25293
25318
25329
25330
25391
25399
25402
25413
25427
25432
25449
25452
25460
25510
25513
25517
25534
25540
25541
25552
25574
25594
25597
25601
25606
25607
25620
25623
25636
25638
25639
25645
25657
25662
25665
25680
25684
25706
25709
25710
25716
25724
25729
25734
25748
25774
25781
25786
25790
25800
25805
25810
25826
25829
25832
25881
25882
25886
25901
25937
25949
25967
25969
25970
25978
25996
26002
26013
26029
26048
26051
26055
26075
26083
26100
26111
26116
26138
26169
26183
26185
26192
26215
26226
26247
26254
26256
26274
26275
26281
26292
26320
26321
26344
26356
26357
26378
26381
26389
26392
26397
26405
26409
26428
26457
26473
26481
26483
26498
26499
26508
26522
26540
26552
26555
26568
26607
26613
26614
26622
26623
26639
26643
26656
26659
26661
26662
26666
26667
26681
26689
26692
26709
26726
26743
26768
26773
26801
26826
26830
26832
26833
26848
26867
26874
26889
26895
26904
26911
26914
26915
26918
26925
26930
26979
26984
26995
27020
27021
27025
27035
27036
27046
27059
27065
27067
27096
27098
27104
27122
27130
27136
27150
27161
27177
27186
27188
27195
27206
27213
27214
27236
27247
27262
27264
27273
27280
27282
27322
27328
27333
27339
27344
27354
27357
27359
27391
27392
27399
27402
27420
27423
27442
27443
27447
27449
27469
27479
27484
27485
27486
27498
27505
27527
27529
27538
27551
27564
27569
27580
27624
27646
27651
27670
27673
27677
27700
27702
27715
27718
27731
27740
27747
27749
27765
27774
27790
27798
27801
27813
27820
27827
27842
27861
27862
27871
27873
27882
27894
27914
27915
27921
27936
27943
27982
27988
28010
28011
28018
28019
28049
28055
28056
28059
28063
28078
28081
28084
28088
28090
28113
28119
28128
28129
28132
28145
28151
28152
28154
28168
28173
28185
28189
28199
28205
28209
28217
28220
28245
28260
28286
28294
28309
28326
28327
28330
28332
28350
28390
28391
28428
28435
28453
28461
28481
28493
28497
28502
28510
28519
28520
28537
28555
28564
28567
28570
28574
28580
28584
28587
28599
28610
28613
28637
28639
28653
28658
28665
28686
28696
28699
28729
28737
28739
28743
28748
28758
28785
28791
28814
28820
28821
28822
28824
28838
28839
28848
28850
28859
28878
28932
28939
28941
28944
28951
28956
28958
28979
29000
29028
29056
29080
29081
29082
29083
29095
29098
29107
29111
29117
29122
29130
29132
29134
29148
29173
29175
29179
29188
29204
29229
29234
29240
29243
29258
29284
29285
29300
29312
29314
29329
29337
29350
29359
29374
29375
29377
29418
29422
29429
29434
29449
29462
29464
29471
29475
29484
29489
29495
29501
29514
29518
29531
29544
29563
29574
29586
29592
29617
29621
29630
29647
29651
29668
29676
29683
29715
29748
29767
29786
29787
29788
29810
29814
29822
29825
29843
29851
29859
29871
29883
29895
29912
29925
29931
29955
29967
29986
30001
30007
30010
30014
30018
30019
30024
30044
30054
30058
30059
30092
30096
30099
30104
30109
30111
30132
30134
30150
30151
30156
30170
30183
30186
30206
30215
30220
30225
30228
30230
30232
30241
30248
30254
30260
30265
30272
30279
30294
30295
30309
30311
30313
30320
30327
30344
30359
30366
30368
30375
30377
30383
30388
30389
30401
30405
30411
30421
30422
30423
30440
30455
30465
30477
30484
30487
30529
30530
30565
30579
30589
30591
30612
30651
30653
30656
30663
30665
30667
30670
30674
30680
30702
30707
30747
30756
30762
30784
30790
30816
30822
30825
30833
30836
30843
30864
30892
30893
30900
30902
30907
30920
30926
30933
30965
30985
30989
30994
31007
31009
31026
31033
31041
31067
31070
31081
31082
31083
31096
31104
31105
31118
31120
31128
31159
31163
31195
31218
31239
31245
31249
31255
31266
31271
31287
31295
31310
31314
31316
31332
31336
31362
31365
31387
31390
31410
31414
31416
31420
31431
31433
31436
31448
31464
31469
31471
31476
31486
31494
31505
31509
31510
31515
31523
31526
31527
31528
31539
31541
31545
31555
31567
31573
31586
31605
31629
31634
31663
31671
31689
31702
31716
31718
31720
31725
31732
31742
31756
31758
31772
31779
31788
31794
31797
31800
31809
31812
31818
31821
31826
31831
31840
31858
31870
31877
31891
31902
31930
31940
31954
31960
31971
31980
32017
32027
32036
32039
32044
32046
32078
32085
32086
32087
32135
32164
32169
32182
32191
32194
32198
32199
32213
32241
32244
32261
32266
32284
32308
32319
32320
32331
32337
32343
32349
32354
32369
32376
32386
32412
32416
32418
32421
32422
32427
32434
32448
32469
32470
32488
32491
32496
32497
32513
32521
32533
32548
32551
32574
32590
32607
32626
32632
32638
32643
32650
32662
32664
32675
32681
32693
32698
32700
32702
32716
32722
32730
32733
32734
32740
32741
32758
32763
32789
32796
32808
32810
32827
32831
32847
32864
32879
32891
32896
32902
32907
32914
32927
32938
32942
32952
32961
32989
33017
33041
33050
33052
33057
33059
33063
33076
33080
33090
33101
33108
33116
33123
33126
33132
33145
33169
33229
33241
33253
33268
33306
33325
33330
33341
33349
33353
33364
33374
33380
33382
33391
33414
33417
33424
33429
33433
33437
33452
33453
33454
33456
33458
33459
33480
33499
33513
33519
33521
33525
33528
33546
33550
33571
33580
33600
33606
33607
33617
33626
33645
33653
33665
33673
33682
33718
33727
33730
33731
33732
33742
33772
33779
33790
33795
33818
33820
33824
33825
33839
33846
33849
33857
33888
33901
33911
33918
33927
33933
33941
33952
33953
33954
33964
33965
33968
33981
33988
33998
34009
34016
34038
34063
34070
34091
34098
34100
34102
34111
34112
34113
34119
34159
34165
34167
34194
34211
34214
34218
34219
34270
34283
34284
34306
34314
34327
34331
34334
34336
34343
34356
34363
34386
34391
34419
34423
34424
34425
34449
34461
34465
34478
34482
34487
34495
34507
34529
34541
34553
34556
34565
34569
34577
34580
34597
34610
34621
34628
34638
34652
34663
34666
34672
34690
34708
34718
34724
34736
34739
34744
34749
34756
34757
34771
34778
34791
34812
34814
34826
34836
34842
34885
34917
34937
34946
34949
34955
34959
34961
34964
34971
34979
34990
34998
34999
35018
35025
35036
35037
35047
35051
35058
35063
35066
35099
35100
35102
35112
35127
35130
35144
35162
35163
35167
35182
35196
35202
35215
35216
35219
35220
35241
35268
35279
35289
35293
35294
35310
35318
35332
35356
35366
35370
35386
35391
35413
35414
35420
35426
35439
35443
35446
35450
35454
35466
35475
35477
35487
35499
35516
35535
35539
35547
35572
35573
35592
35595
35597
35612
35616
35619
35622
35637
35649
35652
35659
35679
35682
35706
35711
35712
35725
35727
35750
35751
35775
35782
35786
35791
35827
35839
35844
35845
35856
35862
35874
35881
35882
35885
35898
35901
35913
35915
35919
35925
35944
35951
35970
35976
35990
35995
36000
36006
36018
36019
36030
36063
36064
36090
36105
36109
36136
36145
36147
36173
36176
36179
36187
36189
36194
36198
36202
36214
36224
36239
36243
36249
36256
36257
36260
36276
36285
36304
36324
36330
36338
36339
36346
36348
36351
36361
36404
36415
36456
36470
36505
36509
36517
36530
36541
36546
36563
36568
36574
36584
36612
36616
36622
36627
36636
36656
36663
36675
36676
36685
36706
36709
36720
36724
36726
36728
36747
36763
36768
36770
36772
36779
36794
36802
36834
36843
36844
36851
36877
36886
36887
36889
36893
36909
36911
36922
36927
36951
36957
36981
37021
37050
37055
37060
37089
37103
37109
37110
37119
37125
37132
37156
37164
37172
37180
37194
37196
37214
37218
37220
37227
37231
37238
37251
37252
37263
37276
37304
37307
37317
37338
37346
37357
37365
37374
37380
37382
37386
37399
37414
37428
37431
37439
37461
37467
37470
37486
37503
37506
37508
37510
37516
37531
37536
37540
37547
37555
37567
37583
37596
37600
37604
37606
37608
37612
37616
37625
37650
37674
37709
37722
37723
37725
37737
37749
37752
37757
37759
37767
37792
37795
37810
37817
37822
37824
37847
37857
37881
37893
37894
37899
37900
37911
37912
37913
37919
37923
37927
37941
37943
37947
37968
37973
37985
37999
38009
38021
38044
38047
38052
38064
38067
38073
38093
38095
38100
38118
38145
38156
38158
38161
38191
38212
38218
38222
38226
38232
38247
38253
38260
38261
38273
38280
38316
38342
38345
38347
38366
38367
38368
38382
38397
38404
38405
38412
38413
38425
38447
38448
38466
38509
38541
38557
38564
38570
38589
38601
38617
38618
38624
38631
38633
38638
38645
38658
38663
38687
38695
38697
38723
38727
38728
38739
38751
38756
38767
38785
38792
38808
38821
38822
38832
38836
38860
38865
38876
38879
38880
38931
38935
38976
38979
38989
39022
39033
39050
39066
39078
39080
39084
39088
39101
39105
39122
39132
39147
39152
39170
39181
39184
39206
39220
39232
39240
39242
39244
39256
39271
39274
39284
39288
39304
39312
39313
39322
39341
39354
39358
39367
39370
39374
39377
39383
39395
39400
39401
39403
39441
39461
39463
39465
39474
39478
39484
39493
39498
39501
39503
39508
39511
39515
39530
39537
39560
39564
39571
39590
39595
39602
39609
39611
39621
39634
39644
39660
39665
39668
39671
39682
39694
39696
39707
39724
39738
39762
39790
39807
39814
39817
39821
39825
39833
39849
39858
39876
39880
39883
39884
39886
39904
39906
39918
39934
39970
39976
39987
39989
40000
40007
40015
40032
40064
40066
40092
40093
40095
40102
40114
40128
40133
40144
40152
40176
40178
40187
40188
40200
40201
40218
40222
40231
40238
40243
40256
40259
40280
40282
40322
40327
40333
40343
40345
40347
40357
40374
40375
40382
40403
40404
40423
40428
40433
40475
40478
40495
40515
40537
40541
40542
40552
40577
40587
40589
40590
40593
40607
40615
40630
40635
40642
40646
40648
40649
40650
40651
40657
40658
40659
40681
40693
40700
40706
40711
40717
40727
40735
40738
40744
40766
40774
40777
40779
40799
40830
40845
40873
40888
40914
40915
40917
40925
40932
40933
40949
40950
40967
40986
41033
41034
41049
41087
41091
41095
41099
41107
41116
41117
41126
41135
41141
41147
41151
41162
41163
41165
41168
41179
41189
41190
41193
41194
41199
41201
41213
41221
41231
41252
41262
41269
41270
41273
41278
41292
41293
41302
41322
41335
41337
41369
41379
41399
41404
41410
41425
41438
41442
41452
41455
41469
41476
41495
41507
41529
41549
41574
41585
41610
41617
41635
41639
41640
41644
41673
41689
41713
41743
41745
41768
41775
41798
41808
41825
41840
41847
41866
41898
41917
41922
41931
41939
41951
41974
42007
42012
42014
42021
42040
42045
42047
42073
42082
42086
42111
42112
42123
42125
42130
42131
42141
42143
42169
42181
42191
42195
42202
42215
42253
42258
42277
42282
42287
42302
42303
42306
42313
42336
42356
42366
42368
42378
42379
42403
42411
42415
42417
42424
42431
42436
42441
42454
42457
42471
42499
42519
42521
42532
42546
42558
42562
42572
42580
42581
42588
42595
42596
42597
42599
42600
42607
42628
42649
42664
42685
42694
42700
42704
42705
42726
42740
42743
42750
42757
42764
42768
42770
42790
42791
42792
42797
42803
42809
42822
42825
42853
42865
42868
42869
42876
42899
42913
42949
42970
42976
42981
42993
42994
43009
43013
43021
43030
43041
43057
43064
43074
43078
43088
43096
43114
43123
43138
43140
43146
43184
43186
43194
43201
43209
43221
43229
43230
43231
43237
43259
43262
43265
43273
43283
43318
43320
43322
43335
43338
43354
43362
43366
43377
43384
43389
43403
43408
43409
43418
43420
43424
43425
43437
43444
43445
43459
43467
43470
43477
43478
43480
43481
43488
43497
43499
43503
43505
43530
43539
43546
43552
43560
43563
43570
43578
43594
43596
43600
43602
43612
43635
43636
43642
43653
43659
43662
43663
43682
43690
43691
43702
43703
43705
43719
43729
43742
43745
43752
43768
43772
43779
43790
43792
43804
43828
43832
43837
43843
43849
43870
43889
43915
43918
43919
43926
43927
43970
43991
44003
44008
44010
44013
44016
44032
44042
44048
44049
44057
44065
44073
44099
44114
44128
44142
44148
44150
44160
44171
44197
44207
44222
44235
44246
44262
44277
44281
44289
44306
44311
44321
44331
44335
44353
44354
44394
44395
44400
44425
44434
44455
44460
44462
44463
44483
44486
44499
44526
44537
44540
44545
44562
44565
44567
44575
44576
44591
44594
44603
44606
44620
44627
44632
44650
44662
44693
44714
44723
44735
44739
44754
44757
44763
44766
44770
44775
44780
44786
44790
44793
44800
44811
44823
44848
44865
44867
44870
44873
44877
44894
44901
44904
44914
44916
44921
44935
44961
44963
44978
45007
45025
45029
45039
45042
45045
45052
45059
45078
45080
45100
45126
45140
45141
45148
45160
45165
45187
45191
45196
45205
45216
45224
45244
45252
45259
45265
45266
45268
45274
45287
45315
45333
45344
45360
45375
45388
45392
45402
45409
45412
45415
45418
45419
45440
45441
45454
45467
45468
45472
45481
45484
45496
45504
45505
45512
45513
45531
45578
45587
45597
45601
45607
45609
45637
45649
45664
45670
45674
45734
45737
45765
45770
45776
45780
45785
45786
45809
45813
45828
45841
45846
45859
45873
45874
45891
45897
45902
45910
45912
45918
45920
45923
45937
45938
45948
45955
45962
45969
45977
45986
45995
45998
46003
46004
46005
46006
46019
46020
46037
46039
46052
46070
46088
46091
46102
46113
46141
46146
46149
46156
46164
46188
46195
46219
46227
46233
46239
46254
46270
46297
46321
46328
46329
46331
46335
46345
46348
46365
46374
46376
46379
46392
46401
46416
46445
46477
46478
46481
46489
46502
46519
46530
46552
46564
46572
46575
46576
46587
46594
46623
46624
46626
46628
46629
46639
46643
46653
46664
46671
46672
46676
46681
46710
46720
46737
46768
46809
46840
46851
46860
46880
46885
46894
46904
46906
46911
46916
46927
46931
46935
46938
46940
46965
47011
47028
47030
47043
47055
47099
47109
47136
47138
47147
47148
47156
47177
47184
47202
47207
47211
47216
47222
47227
47240
47256
47271
47282
47287
47296
47307
47323
47326
47331
47346
47348
47373
47385
47389
47404
47406
47410
47430
47457
47458
47474
47476
47513
47523
47537
47543
47547
47550
47554
47560
47567
47571
47594
47632
47635
47652
47668
47681
47685
47688
47716
47723
47731
47734
47743
47751
47754
47765
47775
47782
47788
47802
47810
47815
47833
47852
47862
47874
47889
47901
47903
47904
47905
47910
47941
47943
47947
47958
47966
47973
47982
48009
48016
48018
48020
48024
48038
48047
48049
48052
48059
48070
48074
48082
48083
48092
48116
48133
48142
48170
48176
48178
48180
48194
48202
48220
48225
48237
48242
48246
48253
48267
48278
48305
48311
48317
48319
48327
48341
48359
48375
48377
48382
48390
48393
48399
48401
48404
48410
48414
48438
48462
48464
48467
48468
48469
48471
48482
48483
48489
48502
48506
48508
48541
48544
48567
48577
48581
48601
48618
48630
48634
48638
48645
48655
48662
48663
48670
48696
48697
48700
48719
48723
48725
48740
48741
48742
48750
48751
48759
48789
48825
48835
48842
48845
48850
48851
48880
48883
48885
48905
48907
48915
48920
48927
48931
48938
48966
48968
48995
49026
49081
49087
49089
49097
49150
49156
49168
49170
49171
49172
49176
49188
49239
49250
49274
49290
49295
49301
49357
49367
49370
49386
49392
49401
49405
49411
49429
49431
49436
49456
49475
49477
49481
49501
49510
49523
49524
49529
49531
49544
49547
49552
49565
49570
49577
49580
49581
49611
49617
49619
49622
49625
49641
49657
49667
49670
49674
49683
49685
49693
49708
49719
49733
49742
49764
49772
49800
49810
49813
49822
49835
49840
49844
49846
49853
49857
49866
49867
49894
49903
49906
49909
49920
49932
49934
49950
49951
49963
49965
49970
49981
50023
50031
50051
50054
50070
50075
50093
50099
50119
50151
50157
50181
50188
50212
50233
50240
50243
50264
50276
50299
50309
50310
50330
50343
50353
50359
50363
50376
50391
50432
50446
50448
50452
50483
50488
50493
50503
50507
50509
50516
50529
50530
50533
50534
50535
50537
50545
50546
50547
50565
50573
50574
50576
50579
50605
50618
50620
50634
50672
50690
50696
50698
50701
50706
50708
50716
50732
50739
50749
50766
50767
50769
50772
50783
50784
50789
50796
50800
50810
50815
50816
50817
50826
50827
50829
50830
50842
50853
50856
50861
50865
50867
50891
50925
50938
50973
50976
50985
50991
50997
51002
51006
51014
51020
51037
51039
51044
51070
51081
51087
51095
51103
51104
51107
51119
51127
51130
51132
51152
51161
51165
51198
51202
51210
51218
51220
51224
51228
51232
51255
51273
51276
51283
51284
51291
51294
51304
51309
51317
51319
51325
51327
51341
51344
51351
51358
51360
51370
51380
51386
51392
51399
51410
51415
51418
51423
51424
51437
51471
51472
51479
51486
51494
51496
51498
51502
51507
51516
51528
51534
51545
51552
51553
51554
51574
51597
51604
51613
51614
51615
51621
51624
51634
51638
51652
51660
51669
51690
51718
51742
51759
51775
51779
51794
51808
51830
51834
51856
51866
51873
51876
51887
51892
51897
51903
51922
51937
51939
51941
51947
51950
51954
51960
51966
51985
51986
51988
52000
52006
52013
52019
52062
52070
52081
52084
52087
52103
52106
52107
52116
52121
52130
52133
52143
52152
52160
52168
52181
52189
52191
52192
52201
52207
52219
52231
52265
52271
52292
52295
52300
52305
52306
52313
52326
52329
52349
52350
52364
52375
52394
52414
52419
52461
52479
52485
52517
52520
52529
52531
52533
52544
52548
52559
52581
52589
52591
52594
52609
52612
52613
52621
52623
52645
52658
52662
52676
52697
52711
52715
52719
52730
52737
52748
52769
52788
52790
52822
52823
52845
52858
52872
52881
52886
52892
52910
52922
52927
52931
52932
52935
52938
52941
52966
52972
53000
53005
53006
53007
53021
53024
53045
53051
53053
53068
53078
53084
53094
53097
53132
53135
53139
53145
53157
53162
53170
53173
53174
53176
53192
53201
53230
53242
53246
53265
53277
53279
53304
53306
53311
53313
53329
53355
53364
53381
53382
53387
53402
53411
53423
53424
53429
53436
53443
53467
53480
53531
53544
53552
53559
53560
53566
53586
53589
53606
53610
53611
53627
53634
53691
53698
53704
53717
53723
53732
53749
53771
53783
53791
53798
53799
53819
53826
53849
53851
53855
53856
53860
53875
53882
53928
53929
53936
53953
53957
53963
53971
53974
53982
53983
53990
53996
54011
54033
54048
54053
54058
54065
54074
54076
54082
54095
54097
54104
54117
54120
54185
54196
54197
54207
54208
54218
54282
54286
54287
54294
54305
54308
54319
54321
54326
54328
54339
54359
54368
54376
54382
54395
54399
54400
54414
54437
54441
54446
54477
54519
54533
54535
54537
54548
54549
54574
54604
54607
54619
54622
54625
54634
54639
54645
54654
54667
54679
54681
54684
54698
54718
54719
54725
54734
54740
54748
54752
54757
54780
54786
54791
54796
54807
54808
54815
54819
54822
54823
54844
54869
54871
54876
54885
54895
54896
54915
54916
54922
54927
54931
54932
54953
54959
54965
54972
54985
54995
55002
55007
55017
55021
55025
55032
55053
55073
55076
55083
55094
55133
55185
55189
55191
55198
55209
55220
55236
55238
55245
55264
55272
55274
55289
55301
55304
55312
55321
55322
55323
55345
55346
55353
55356
55363
55367
55370
55379
55386
55387
55391
55415
55418
55419
55446
55489
55493
55537
55541
55550
55551
55552
55572
55595
55597
55614
55627
55628
55645
55647
55650
55654
55658
55659
55673
55678
55710
55724
55733
55747
55749
55750
55752
55765
55767
55778
55800
55805
55809
55826
55839
55857
55863
55880
55889
55890
55899
55904
55905
55907
55917
55920
55922
55930
55933
55943
55972
55992
56007
56064
56101
56104
56112
56135
56136
56141
56146
56152
56154
56156
56175
56178
56184
56187
56203
56206
56210
56211
56219
56228
56235
56286
56287
56305
56310
56322
56345
56348
56357
56363
56370
56378
56394
56403
56404
56413
56416
56427
56436
56443
56446
56453
56455
56456
56459
56467
56481
56503
56508
56515
56517
56518
56534
56538
56546
56549
56553
56556
56571
56578
56594
56595
56613
56617
56627
56634
56661
56672
56707
56714
56718
56737
56765
56770
56771
56773
56782
56784
56794
56796
56802
56803
56818
56846
56858
56899
56934
56937
56955
56958
56961
56967
56987
56988
56994
57004
57040
57054
57064
57067
57081
57088
57090
57102
57118
57136
57146
57151
57164
57165
57166
57177
57191
57199
57202
57215
57219
57223
57229
57238
57253
57260
57263
57265
57270
57275
57282
57283
57291
57304
57313
57323
57324
57329
57333
57378
57383
57386
57411
57412
57414
57433
57435
57438
57447
57455
57456
57462
57503
57514
57532
57539
57541
57554
57555
57563
57573
57579
57581
57585
57603
57631
57680
57696
57706
57725
57727
57738
57741
57751
57757
57762
57833
57835
57839
57845
57855
57860
57884
57893
57894
57900
57901
57906
57909
57914
57926
57931
57953
57976
57983
57991
57997
58002
58009
58010
58014
58016
58031
58032
58049
58052
58055
58059
58069
58079
58080
58083
58089
58108
58118
58123
58125
58135
58140
58151
58156
58168
58211
58214
58221
58222
58238
58243
58271
58278
58289
58292
58297
58301
58321
58329
58332
58336
58339
58346
58351
58361
58370
58390
58402
58422
58430
58431
58433
58441
58443
58460
58463
58464
58472
58475
58484
58501
58514
58520
58535
58550
58554
58562
58568
58588
58602
58612
58626
58631
58633
58634
58638
58652
58661
58662
58671
58674
58685
58694
58696
58698
58720
58727
58743
58750
58752
58761
58766
58780
58793
58818
58822
58837
58851
58866
58869
58884
58890
58891
58895
58910
58933
58949
58950
58956
58982
58989
59021
59034
59038
59049
59052
59064
59065
59067
59071
59074
59089
59123
59129
59151
59164
59173
59176
59179
59182
59192
59195
59210
59227
59248
59254
59265
59266
59302
59304
59313
59317
59326
59329
59330
59338
59346
59355
59360
59370
59384
59385
59396
59413
59417
59423
59430
59436
59442
59444
59445
59447
59462
59473
59474
59478
59481
59494
59504
59507
59533
59555
59560
59591
59608
59611
59616
59620
59628
59636
59637
59639
59643
59662
59671
59675
59691
59698
59723
59736
59741
59743
59750
59754
59762
59778
59791
59801
59804
59815
59824
59841
59861
59871
59880
59892
59906
59909
59910
59911
59915
59925
59930
59940
59945
59954
59970
59977
59994
59996
60008
60074
60075
60094
60095
60099
60102
60109
60126
60135
60154
60158
60159
60175
60199
60204
60205
60209
60212
60223
60229
60230
60238
60261
60276
60286
60291
60305
60306
60322
60338
60352
60358
60370
60376
60386
60391
60402
60406
60407
60413
60422
60431
60433
60450
60457
60459
60483
60492
60504
60519
60525
60540
60570
60592
60622
60650
60657
60665
60666
60675
60687
60689
60699
60707
60713
60719
60726
60739
60768
60772
60787
60803
60810
60811
60813
60815
60818
60853
60860
60862
60870
60875
60916
60970
60974
60980
60983
60997
61012
61014
61025
61035
61046
61061
61098
61109
61121
61149
61152
61157
61159
61175
61191
61195
61207
61208
61211
61217
61233
61239
61271
61291
61293
61304
61315
61321
61322
61340
61352
61370
61377
61378
61380
61397
61400
61402
61407
61416
61422
61432
61459
61464
61470
61506
61523
61535
61547
61548
61566
61568
61601
61605
61618
61634
61651
61665
61669
61682
61689
61703
61733
61734
61740
61770
61771
61777
61794
61797
61820
61828
61837
61842
61876
61883
61884
61908
61919
61950
61953
61969
61979
62002
62015
62026
62038
62044
62058
62069
62091
62096
62102
62116
62117
62143
62183
62186
62188
62200
62212
62246
62255
62266
62293
62307
62313
62315
62327
62334
62343
62347
62391
62403
62405
62420
62423
62425
62441
62461
62464
62471
62472
62473
62479
62491
62500
62509
62515
62517
62539
62549
62554
62557
62575
62601
62604
62622
62625
62630
62639
62640
62648
62664
62669
62687
62690
62696
62730
62739
62764
62773
62777
62789
62811
62827
62830
62832
62860
62865
62866
62880
62889
62894
62901
62904
62909
62910
62911
62923
62929
62951
62971
62973
62979
62981
62993
63009
63024
63032
63035
63040
63045
63046
63059
63072
63078
63080
63084
63101
63124
63130
63134
63135
63143
63159
63167
63178
63181
63189
63222
63230
63235
63237
63240
63254
63267
63271
63275
63301
63362
63374
63376
63390
63391
63400
63404
63422
63423
63424
63426
63452
63458
63464
63473
63482
63489
63499
63506
63519
63523
63530
63541
63546
63547
63562
63570
63571
63574
63581
63626
63653
63666
63668
63671
63676
63677
63678
63684
63708
63720
63725
63729
63752
63753
63773
63786
63792
63810
63811
63819
63821
63822
63836
63848
63855
63888
63901
63909
63919
63921
63927
63953
63957
63958
63961
63966
63968
63986
63990
63995
64007
64019
64025
64040
64046
64075
64083
64089
64091
64092
64097
64120
64135
64153
64161
64169
64180
64181
64182
64189
64197
64202
64207
64216
64221
64222
64224
64229
64235
64239
64244
64255
64261
64264
64269
64275
64277
64292
64307
64309
64311
64370
64373
64390
64404
64407
64413
64432
64438
64446
64452
64457
64472
64483
64491
64504
64509
64513
64520
64537
64540
64557
64559
64563
64566
64573
64576
64583
64589
64598
64637
64638
64639
64642
64649
64656
64672
64681
64682
64696
64700
64726
64727
64747
64768
64782
64786
64796
64815
64817
64831
64840
64841
64842
64850
64851
64863
64872
64885
64890
64895
64943
64946
64959
64963
64975
64981
64983
64996
65006
65019
65040
65042
65062
65087
65096
65099
65101
65114
65127
65140
65147
65154
65169
65177
65178
65219
65225
65228
65232
65236
65237
65275
65294
65312
65319
65327
65333
65344
65354
65355
65379
65385
65386
65388
65393
65409
65414
65441
65475
65483
65492
65510
65513
65516
65552
65554
65562
65568
65587
65590
65607
65611
65612
65646
65660
65676
65681
65695
65696
65699
65704
65720
65752
65759
65763
65769
65799
65802
65821
65826
65832
65836
65845
65873
65878
65888
65896
65902
65908
65923
65961
65981
65991
65999
66000
66003
66028
66047
66054
66057
66069
66085
66086
66100
66107
66116
66126
66131
66138
66152
66159
66168
66171
66179
66185
66189
66192
66194
66209
66235
66248
66269
66275
66277
66279
66280
66283
66316
66318
66322
66333
66348
66353
66357
66361
66364
66365
66378
66384
66400
66406
66425
66430
66441
66448
66455
66456
66463
66473
66498
66502
66504
66507
66518
66536
66541
66546
66552
66560
66592
66593
66594
66610
66625
66641
66649
66663
66683
66710
66716
66741
66743
66756
66818
66827
66839
66846
66849
66865
66870
66876
66880
66887
66907
66971
67000
67011
67022
67045
67058
67073
67074
67075
67084
67090
67094
67102
67113
67114
67117
67130
67134
67135
67141
67144
67147
67148
67150
67155
67165
67169
67186
67187
67201
67209
67212
67221
67231
67232
67245
67254
67258
67272
67287
67305
67314
67331
67349
67353
67378
67405
67418
67426
67441
67461
67471
67480
67501
67532
67538
67549
67557
67574
67576
67577
67585
67593
67595
67611
67675
67687
67692
67710
67714
67729
67731
67736
67809
67812
67814
67820
67826
67828
67836
67843
67848
67865
67871
67893
67906
67919
67934
67949
67957
67958
67977
67986
68006
68016
68019
68030
68037
68052
68061
68062
68069
68073
68082
68097
68099
68104
68120
68124
68127
68139
68158
68159
68161
68171
68173
68179
68183
68184
68192
68193
68195
68196
68205
68218
68228
68235
68246
68277
68289
68301
68305
68308
68330
68338
68342
68357
68381
68384
68391
68393
68407
68408
68419
68426
68431
68436
68441
68449
68451
68460
68462
68472
68482
68487
68492
68503
68511
68522
68526
68531
68543
68554
68575
68582
68586
68590
68592
68602
68609
68611
68614
68632
68635
68644
68668
68676
68683
68688
68692
68696
68700
68725
68737
68746
68751
68773
68777
68779
68787
68794
68797
68816
68818
68831
68833
68837
68842
68881
68884
68891
68920
68927
68931
68943
68946
68957
68958
68988
68989
69001
69005
69008
69010
69016
69022
69023
69064
69076
69087
69088
69098
69110
69111
69112
69128
69131
69134
69135
69143
69156
69158
69171
69175
69180
69185
69188
69189
69200
69215
69250
69262
69267
69278
69282
69287
69304
69341
69351
69360
69361
69365
69379
69389
69394
69398
69410
69418
69425
69431
69450
69456
69464
69467
69472
69477
69485
69487
69513
69515
69524
69528
69531
69539
69557
69568
69569
69582
69603
69613
69614
69636
69637
69642
69654
69661
69685
69686
69695
69702
69704
69706
69721
69752
69756
69780
69812
69834
69846
69848
69870
69873
69885
69886
69889
69891
69892
69906
69914
69922
69947
69956
69963
69964
69968
69988
70008
70014
70023
70026
70043
70045
70083
70105
70120
70121
70150
70162
70163
70186
70209
70214
70227
70246
70275
70308
70309
70336
70345
70349
70353
70381
70427
70449
70455
70471
70495
70496
70511
70522
70523
70544
70579
70605
70609
70612
70620
70641
70643
70644
70645
70652
70653
70657
70659
70680
70699
70723
70724
70727
70729
70731
70732
70735
70741
70747
70752
70755
70761
70765
70774
70789
70793
70794
70796
70799
70813
70825
70832
70833
70841
70843
70845
70853
70864
70915
70917
70930
70955
70956
70958
70964
70980
70986
70987
70991
70992
71001
71004
71012
71013
71024
71032
71040
71043
71047
71064
71069
71074
71077
71079
71090
71101
71112
71114
71117
71123
71124
71142
71151
71158
71165
71178
71191
71207
71212
71225
71226
71243
71251
71254
71265
71266
71268
71273
71275
71281
71295
71296
71298
71322
71324
71330
71350
71357
71360
71367
71382
71392
71396
71426
71445
71462
71470
71479
71487
71488
71518
71527
71538
71544
71546
71554
71555
71557
71566
71568
71584
71591
71604
71605
71608
71613
71616
71620
71636
71653
71672
71695
71717
71725
71752
71753
71767
71772
71775
71783
71795
71806
71812
71845
71852
71857
71858
71868
71872
71879
71881
71883
71893
71901
71910
71920
71934
71946
71951
71955
71957
71966
71971
72004
72014
72019
72036
72054
72063
72091
72094
72095
72104
72113
72131
72152
72163
72169
72170
72188
72192
72200
72217
72225
72230
72261
72269
72273
72276
72282
72292
72293
72304
72305
72307
72313
72314
72324
72335
72354
72355
72382
72390
72394
72398
72409
72412
72414
72429
72432
72453
72456
72457
72464
72466
72468
72475
72485
72503
72508
72514
72520
72525
72526
72527
72545
72554
72567
72570
72576
72580
72592
72597
72613
72622
72623
72653
72659
72677
72686
72700
72708
72725
72742
72755
72766
72815
72823
72874
72878
72921
72925
72926
72933
72938
72943
72947
72950
72967
72974
72987
73004
73006
73012
73017
73026
73038
73040
73043
73051
73056
73078
73079
73084
73086
73087
73097
73104
73115
73116
73119
73121
73124
73126
73145
73148
73164
73166
73176
73186
73200
73223
73241
73247
73283
73319
73347
73351
73362
73369
73388
73389
73393
73397
73398
73400
73410
73419
73420
73426
73427
73430
73438
73503
73505
73510
73519
73533
73552
73573
73581
73587
73589
73607
73611
73620
73621
73636
73638
73639
73647
73648
73651
73653
73671
73674
73676
73678
73691
73701
73712
73745
73754
73755
73761
73767
73775
73778
73794
73798
73799
73802
73817
73824
73832
73836
73845
73854
73863
73870
73879
73890
73891
73905
73914
73927
73930
73932
73983
73989
73995
73998
74003
74005
74029
74040
74067
74070
74073
74078
74080
74088
74110
74111
74112
74122
74134
74135
74137
74138
74182
74193
74199
74203
74209
74247
74248
74261
74268
74282
74287
74293
74298
74301
74314
74318
74322
74333
74338
74347
74354
74360
74418
74427
74451
74452
74470
74472
74475
74488
74489
74491
74506
74509
74514
74515
74516
74519
74539
74547
74548
74565
74573
74574
74584
74597
74600
74611
74628
74663
74666
74699
74704
74706
74707
74708
74713
74718
74734
74739
74750
74752
74754
74786
74791
74804
74809
74813
74822
74829
74831
74835
74842
74850
74853
74862
74864
74868
74877
74939
74949
74955
74963
74973
74976
74980
74989
75007
75008
75024
75038
75040
75059
75070
75086
75089
75091
75098
75107
75109
75129
75141
75153
75173
75176
75182
75187
75192
75194
75213
75215
75222
75225
75231
75233
75238
75240
75276
75291
75295
75307
75325
75326
75332
75360
75379
75381
75391
75401
75406
75418
75429
75431
75435
75439
75449
75458
75480
75495
75505
75524
75539
75542
75566
75574
75581
75588
75594
75599
75606
75618
75629
75642
75645
75656
75684
75690
75710
75717
75757
75762
75769
75790
75799
75802
75806
75809
75812
75815
75850
75851
75872
75912
75914
75925
75943
75959
75970
75980
75997
75998
75999
76006
76011
76017
76018
76020
76037
76040
76051
76062
76090
76103
76140
76143
76144
76176
76179
76191
76195
76209
76222
76226
76230
76233
76242
76257
76262
76276
76283
76284
76298
76302
76305
76307
76308
76311
76317
76318
76328
76349
76365
76384
76393
76394
76410
76411
76415
76416
76423
76432
76449
76452
76471
76473
76476
76484
76502
76503
76524
76526
76529
76540
76552
76553
76571
76588
76603
76610
76612
76615
76617
76623
76627
76631
76669
76686
76687
76744
76749
76759
76782
76797
76846
76866
76867
76876
76904
76905
76906
76914
76916
76923
76925
76929
76944
76981
76982
76988
76992
76995
76997
77000
77001
77005
77020
77030
77031
77056
77065
77068
77094
77107
77110
77116
77131
77151
77161
77194
77195
77215
77218
77224
77241
77247
77252
77265
77282
77289
77292
77298
77304
77308
77313
77320
77321
77332
77379
77387
77388
77390
77391
77398
77405
77435
77449
77457
77458
77505
77515
77536
77538
77547
77551
77552
77559
77562
77570
77573
77577
77581
77595
77601
77623
77641
77645
77647
77658
77665
77677
77686
77692
77695
77699
77709
77716
77733
77736
77737
77738
77739
77741
77762
77767
77774
77776
77779
77788
77812
77816
77828
77837
77863
77864
77871
77875
77879
77883
77900
77928
77936
77939
77954
77959
77969
77972
77990
77994
78013
78023
78028
78042
78067
78077
78096
78097
78099
78106
78127
78131
78144
78152
78169
78172
78203
78210
78229
78230
78231
78241
78243
78263
78275
78278
78285
78290
78305
78308
78331
78334
78349
78370
78392
78394
78400
78401
78402
78405
78414
78416
78429
78444
78448
78480
78481
78506
78515
78517
78539
78546
78573
78583
78601
78612
78618
78626
78652
78669
78684
78696
78715
78731
78743
78762
78766
78773
78790
78815
78820
78834
78862
78874
78878
78888
78905
78913
78919
78934
78946
78948
78956
78985
78995
78996
78998
79001
79032
79034
79037
79043
79046
79067
79070
79085
79092
79113
79116
79118
79123
79133
79136
79142
79151
79166
79197
79203
79215
79218
79220
79221
79228
79233
79234
79235
79242
79244
79251
79257
79259
79280
79305
79314
79317
79318
79321
79328
79333
79336
79338
79352
79354
79372
79380
79387
79403
79404
79433
79440
79449
79514
79521
79527
79536
79543
79549
79557
79564
79576
79589
79607
79611
79614
79619
79639
79641
79642
79647
79651
79668
79678
79679
79689
79720
79721
79725
79731
79732
79738
79739
79741
79746
79763
79764
79772
79817
79819
79844
79856
79871
79879
79889
79896
79904
79914
79949
79959
79968
79996
80009
80040
80043
80055
80057
80073
80075
80086
80096
80098
80100
80122
80136
80137
80140
80156
80179
80180
80198
80212
80219
80222
80236
80241
80242
80260
80267
80269
80287
80290
80294
80308
80315
80328
80333
80334
80350
80363
80382
80387
80398
80449
80474
80486
80505
80527
80534
80537
80538
80550
80558
80564
80578
80579
80590
80604
80609
80610
80633
80650
80655
80658
80659
80660
80661
80690
80698
80729
80731
80734
80738
80742
80755
80762
80770
80778
80780
80788
80789
80791
80794
80801
80806
80809
80814
80823
80831
80833
80835
80840
80842
80850
80851
80863
80880
80885
80892
80896
80897
80898
80912
80951
80960
80968
80971
80974
80978
80983
80990
81006
81019
81021
81040
81043
81047
81068
81094
81100
81112
81120
81126
81139
81151
81162
81172
81180
81185
81190
81205
81216
81239
81247
81273
81276
81298
81299
81322
81326
81338
81343
81348
81367
81395
81399
81402
81415
81422
81433
81434
81449
81452
81460
81474
81487
81498
81511
81513
81522
81526
81529
